#Energy 	 NLD
1.046	52.0782
1.06291	56.1128
1.07982	60.1471
1.09672	64.1812
1.11363	68.215
1.13053	72.2485
1.14744	77.4167
1.16435	83.3798
1.18125	89.3426
1.19816	95.3049
1.21506	101.267
1.23197	107.228
1.24888	114.457
1.26578	122.303
1.28269	130.147
1.29959	137.991
1.3165	145.834
1.33341	153.677
1.35031	164.057
1.36722	175.248
1.38413	186.438
1.40103	197.627
1.41794	208.814
1.43484	220.001
1.45175	234.713
1.46866	250.08
1.48556	265.446
1.50247	280.811
1.51937	296.174
1.53628	311.535
1.55319	329.808
1.57009	348.305
1.587	366.8
1.60391	385.293
1.62081	403.785
1.63772	422.269
1.65462	440.446
1.67153	458.621
1.68844	476.794
1.70534	494.964
1.72225	513.132
1.73915	531.354
1.75606	550.103
1.77297	568.85
1.78987	587.594
1.80678	606.335
1.82368	625.073
1.84059	644.129
1.8575	664.613
1.8744	685.093
1.89131	705.571
1.90822	726.046
1.92512	746.517
1.94203	770.413
1.95893	803.679
1.97584	836.939
1.99275	870.194
2.00965	903.445
2.02656	936.69
2.04346	979.489
2.06037	1039.82
2.07728	1100.14
2.09418	1160.45
2.11109	1220.75
2.128	1281.04
2.1449	1351.1
2.16181	1433.72
2.17871	1516.32
2.19562	1598.9
2.21253	1681.47
2.22943	1764.03
2.24634	1854.15
2.26324	1951.18
2.28015	2048.18
2.29706	2145.17
2.31396	2242.15
2.33087	2339.1
2.34777	2440.54
2.36468	2544.87
2.38159	2649.19
2.39849	2753.48
2.4154	2857.75
2.43231	2962.01
2.44921	3071.84
2.46612	3184.14
2.48302	3296.42
2.49993	3408.68
2.51684	3520.91
2.53374	3633.12
2.55065	3758.96
2.56755	3888.68
2.58446	4018.37
2.60137	4148.04
2.61827	4277.68
2.63518	4407.3
2.65208	4554.44
2.66899	4704.34
2.6859	4854.21
2.7028	5004.05
2.71971	5153.86
2.73662	5303.64
2.75352	5500.82
2.77043	5700.58
2.78733	5900.3
2.80424	6099.97
2.82115	6299.6
2.83805	6500.74
2.85496	6747.65
2.87186	6994.5
2.88877	7241.3
2.90568	7488.05
2.92258	7734.75
2.93949	7989.07
2.9564	8300.86
2.9733	8612.59
2.99021	8924.26
3.00711	9235.85
3.02402	9547.38
3.04093	9877.09
3.05783	10278.6
3.07474	10680
3.09164	11081.3
3.10855	11482.5
3.12546	11883.7
3.14236	12310.7
3.15927	12801.9
3.17617	13293
3.19308	13784
3.20999	14274.9
3.22689	14765.7
3.2438	15315.2
3.26071	15963.7
3.27761	16612
3.29452	17260.2
3.31142	17908.3
3.32833	18556.2
3.34524	19270.1
3.36214	20062.5
3.37905	20854.7
3.39595	21646.7
3.41286	22438.4
3.42977	23230
3.44667	24128.4
3.46358	25116.6
3.48049	26104.6
3.49739	27092.3
3.5143	28079.8
3.5312	29067.1
3.54811	30228.6
3.56502	31493.5
3.58192	32758.1
3.59883	34022.4
3.61573	35286.4
3.63264	36550.1
3.64955	38011.8
3.66645	39553.3
3.68336	41094.4
3.70026	42635.2
3.71717	44175.5
3.73408	45715.4
3.75098	47609.7
3.76789	49593.5
3.7848	51576.8
3.8017	53559.5
3.81861	55541.8
3.83551	57523.6
3.85242	59928.8
3.86933	62389.9
3.88623	64850.3
3.90314	67310.1
3.92004	69769.2
3.93695	72227.7
3.95386	75343.8
3.97076	78481.3
3.98767	81617.9
4.00457	84753.7
4.02148	87888.7
4.03839	91073.6
4.05529	95173.1
4.0722	99271.5
4.08911	103369
4.10601	107465
4.12292	111560
4.13982	115802
4.15673	120965
4.17364	126127
4.19054	131288
4.20745	136447
4.22435	141605
4.24126	147101
4.25817	153785
4.27507	160466
4.29198	167146
4.30889	173824
4.32579	180500
4.3427	187675
4.3596	195977
4.37651	204276
4.39342	212573
4.41032	220868
4.42723	229160
4.44413	238267
4.46104	248634
4.47795	258999
4.49485	269361
4.51176	279720
4.52866	290076
4.54557	301826
4.56248	315102
4.57938	328375
4.59629	341644
4.6132	354910
4.6301	368171
4.64701	383568
4.66391	400626
4.68082	417678
4.69773	434726
4.71463	451769
4.73154	468807
4.74844	489976
4.76535	513391
4.78226	536799
4.79916	560201
4.81607	583596
4.83298	606984
4.84988	636203
4.86679	667547
4.88369	698881
4.9006	730207
4.91751	761525
4.93441	792833
4.95132	831671
4.96822	872184
4.98513	912684
5.00204	953174
5.01894	993652
5.03585	1.03412e+06
5.05275	1.0837e+06
5.06966	1.13425e+06
5.08657	1.1848e+06
5.10347	1.23532e+06
5.12038	1.28839e+06
5.13729	1.34937e+06
5.15419	1.41034e+06
5.1711	1.47129e+06
5.188	1.53222e+06
5.20491	1.6004e+06
5.22182	1.67374e+06
5.23872	1.74705e+06
5.25563	1.82034e+06
5.27253	1.89361e+06
5.28944	1.98048e+06
5.30635	2.06842e+06
5.32325	2.15633e+06
5.34016	2.24422e+06
5.35706	2.33672e+06
5.37397	2.44192e+06
5.39088	2.54709e+06
5.40778	2.65223e+06
5.42469	2.75733e+06
5.4416	2.87484e+06
5.4585	3.00033e+06
5.47541	3.12578e+06
5.49231	3.25119e+06
5.50922	3.37657e+06
5.52613	3.5247e+06
5.54303	3.67401e+06
5.55994	3.82327e+06
5.57684	3.97249e+06
5.59375	4.12983e+06
5.61066	4.30709e+06
5.62756	4.4843e+06
5.64447	4.66146e+06
5.66138	4.83856e+06
5.67828	5.03639e+06
5.69519	5.24628e+06
5.71209	5.4561e+06
5.729	5.66586e+06
5.74591	5.87556e+06
5.76281	6.12252e+06
5.77972	6.37046e+06
5.79662	6.61832e+06
5.81353	6.86611e+06
5.83044	7.12784e+06
5.84734	7.42015e+06
5.86425	7.71238e+06
5.88115	8.00451e+06
5.89806	8.29656e+06
5.91497	8.62251e+06
5.93187	8.96628e+06
5.94878	9.30994e+06
5.96569	9.65349e+06
5.98259	9.99694e+06
5.9995	1.04002e+07
6.0164	1.08036e+07
6.03331	1.12069e+07
6.05022	1.16101e+07
6.06712	1.20366e+07
6.08403	1.25092e+07
6.10093	1.29816e+07
6.11784	1.34538e+07
6.13475	1.39259e+07
6.15165	1.44525e+07
6.16856	1.50047e+07
6.18547	1.55568e+07
6.20237	1.61087e+07
6.21928	1.66623e+07
6.23618	1.73066e+07
6.25309	1.79507e+07
6.27	1.85946e+07
6.2869	1.92383e+07
6.30381	1.99203e+07
6.32071	2.06703e+07
6.33762	2.14201e+07
6.35453	2.21697e+07
6.37143	2.2919e+07
6.38834	2.37542e+07
6.40524	2.46256e+07
6.42215	2.54968e+07
6.43906	2.63677e+07
6.45596	2.72444e+07
6.47287	2.82554e+07
6.48978	2.9266e+07
6.50668	3.02764e+07
6.52359	3.12864e+07
6.54049	3.20403e+07
6.5574	3.23839e+07
6.57431	3.27273e+07
6.59121	3.30706e+07
6.60812	3.34138e+07
6.62502	3.37569e+07
6.64193	3.40998e+07
6.65884	3.44426e+07
6.67574	3.47852e+07
6.69265	3.51278e+07
6.70955	3.54702e+07
6.72646	3.58124e+07
6.74337	3.61545e+07
6.76027	3.64965e+07
6.77718	3.68384e+07
6.79409	3.71801e+07
6.81099	3.75217e+07
6.8279	3.78632e+07
6.8448	3.82045e+07
6.86171	3.85457e+07
6.87862	3.88867e+07
6.89552	3.92277e+07
6.91243	3.95684e+07
6.92933	3.99091e+07
6.94624	4.02496e+07
6.96315	4.05899e+07
6.98005	4.09302e+07
6.99696	4.12703e+07
7.01387	4.16102e+07
7.03077	4.195e+07
7.04768	4.22897e+07
7.06458	4.26292e+07
7.08149	4.29686e+07
7.0984	4.33078e+07
7.1153	4.36469e+07
7.13221	4.39859e+07
7.14911	4.43247e+07
7.16602	4.46634e+07
7.18293	4.50019e+07
7.19983	4.53403e+07
7.21674	4.56785e+07
7.23364	4.60166e+07
7.25055	4.63545e+07
7.26746	4.66923e+07
7.28436	4.703e+07
7.30127	4.73675e+07
7.31818	4.77048e+07
7.33508	4.80421e+07
7.35199	4.83791e+07
7.36889	4.8716e+07
7.3858	4.90528e+07
7.40271	4.93894e+07
7.41961	4.97259e+07
7.43652	5.00622e+07
7.45342	5.03983e+07
7.47033	5.07344e+07
7.48724	5.10702e+07
7.50414	5.14059e+07
7.52105	5.17415e+07
7.53796	5.20769e+07
7.55486	5.24121e+07
7.57177	5.27472e+07
7.58867	5.30822e+07
7.60558	5.3417e+07
7.62249	5.37516e+07
7.63939	5.40861e+07
7.6563	5.44204e+07
7.6732	5.47546e+07
7.69011	5.50886e+07
7.70702	5.54224e+07
7.72392	5.57561e+07
7.74083	5.60897e+07
7.75773	5.64231e+07
7.77464	5.67563e+07
7.79155	5.70894e+07
