Response function created for file:alfna    at 24-Sep-18 23:47:46
Calibration (a0,a1)= -1988.0   32.000  FWHM=    3.0

 Egam(keV) FWHM(keV) EffTot  Photo  Compton Single  Double   Annih
   252.0      38.3   1.163  0.4248  0.5752  0.0000  0.0000  0.0000
   572.0      36.5   1.115  0.3528  0.6472  0.0000  0.0000  0.0000
   892.0      37.6   1.059  0.3117  0.6883  0.0000  0.0000  0.0000
  1212.0      39.2   1.013  0.2953  0.7039  0.0005  0.0000  0.0003
  1532.0      41.7   0.980  0.2756  0.7186  0.0035  0.0006  0.0017
  1852.0      44.4   0.956  0.2573  0.7284  0.0087  0.0014  0.0042
  2172.0      47.4   0.939  0.2420  0.7330  0.0149  0.0025  0.0075
  2492.0      50.8   0.932  0.2277  0.7360  0.0219  0.0033  0.0111
  2812.0      54.3   0.924  0.2159  0.7366  0.0285  0.0044  0.0146
  3132.0      58.0   0.920  0.2023  0.7403  0.0343  0.0053  0.0178
  3452.0      61.9   0.922  0.1918  0.7416  0.0396  0.0060  0.0211
  3772.0      65.9   0.922  0.1807  0.7445  0.0442  0.0063  0.0242
  4092.0      69.9   0.925  0.1718  0.7453  0.0486  0.0074  0.0269
  4412.0      74.1   0.929  0.1628  0.7464  0.0532  0.0077  0.0299
  4732.0      78.3   0.936  0.1539  0.7522  0.0550  0.0074  0.0316
  5052.0      82.6   0.941  0.1480  0.7537  0.0576  0.0079  0.0328
  5372.0      86.9   0.951  0.1380  0.7591  0.0593  0.0082  0.0355
  5692.0      91.3   0.953  0.1331  0.7608  0.0602  0.0084  0.0374
  6012.0      95.7   0.959  0.1280  0.7644  0.0615  0.0086  0.0375
  6332.0     100.1   0.968  0.1213  0.7698  0.0606  0.0086  0.0397
  6652.0     104.6   0.976  0.1166  0.7721  0.0618  0.0087  0.0408
  6972.0     109.1   0.982  0.1114  0.7780  0.0610  0.0080  0.0416
  7292.0     113.6   0.990  0.1071  0.7816  0.0609  0.0080  0.0424
  7612.0     118.1   1.000  0.1023  0.7859  0.0608  0.0078  0.0432
  7932.0     122.6   1.007  0.0979  0.7916  0.0590  0.0075  0.0440
  8252.0     127.2   1.016  0.0948  0.7945  0.0581  0.0079  0.0446
  8572.0     131.8   1.021  0.0903  0.8007  0.0568  0.0074  0.0448
  8892.0     136.3   1.032  0.0859  0.8057  0.0557  0.0075  0.0452
  9212.0     140.9   1.042  0.0821  0.8105  0.0544  0.0071  0.0460
  9532.0     145.5   1.050  0.0799  0.8146  0.0530  0.0069  0.0456
  9852.0     150.1   1.056  0.0764  0.8190  0.0514  0.0068  0.0465
 10172.0     154.8   1.065  0.0741  0.8222  0.0504  0.0067  0.0466
 10492.0     159.5   1.073  0.0711  0.8270  0.0489  0.0065  0.0466
 10812.0     164.1   1.081  0.0681  0.8315  0.0475  0.0062  0.0466
 11132.0     168.8   1.089  0.0654  0.8357  0.0461  0.0060  0.0468
 11452.0     173.4   1.097  0.0624  0.8404  0.0446  0.0058  0.0468
 11772.0     178.0   1.106  0.0595  0.8448  0.0432  0.0056  0.0469
 12092.0     182.6   1.113  0.0572  0.8481  0.0421  0.0055  0.0472
 12412.0     187.3   1.121  0.0548  0.8527  0.0404  0.0053  0.0468
 12732.0     192.0   1.128  0.0530  0.8558  0.0391  0.0052  0.0469
 13052.0     196.7   1.135  0.0509  0.8595  0.0377  0.0051  0.0468
 13372.0     201.3   1.142  0.0490  0.8630  0.0363  0.0050  0.0468
 13692.0     206.0   1.149  0.0471  0.8664  0.0349  0.0048  0.0468
 Details on efficiency up to 1000 keV:
    Egam  EffTot  EffExp  EffTot*EffExp
=======================================
    28.0   1.185   0.000   0.000
    60.0   1.182   0.000   0.000
    92.0   1.179   0.000   0.000
   124.0   1.176   0.002   0.002
   156.0   1.172   0.033   0.039
   188.0   1.169   0.091   0.107
   220.0   1.166   0.290   0.339
   252.0   1.163   0.466   0.541
   284.0   1.159   0.568   0.659
   316.0   1.156   0.719   0.831
   348.0   1.153   0.872   1.006
   380.0   1.150   0.890   1.023
   412.0   1.145   0.907   1.039
   444.0   1.139   0.925   1.054
   476.0   1.133   0.943   1.068
   508.0   1.127   0.960   1.082
   540.0   1.121   0.978   1.096
   572.0   1.115   0.990   1.104
   604.0   1.109   0.992   1.100
   636.0   1.103   0.993   1.096
   668.0   1.097   0.995   1.092
   700.0   1.092   0.996   1.088
   732.0   1.086   0.998   1.084
   764.0   1.080   0.999   1.080
   796.0   1.075   1.000   1.075
   828.0   1.069   1.000   1.069
   860.0   1.064   1.000   1.064
   892.0   1.059   1.000   1.059
   924.0   1.054   1.000   1.054
   956.0   1.049   1.000   1.049
   988.0   1.044   1.000   1.044
